#camera velocity
1	-0.0568871	0	1	-0.00257939	0	1	0.0373486	0	1	0.0174533	0	1	0.0349066	0	1	0.0523599	0	
2	-0.0524396	0	2	0.001145	0	2	0.0317165	0	2	0.015708	0	2	0.0314159	0	2	0.0471239	0	
3	-0.0479975	0	3	0.00385854	0	3	0.0269268	0	3	0.0141372	0	3	0.0282743	0	3	0.0424115	0	
4	-0.0436965	0	4	0.0057697	0	4	0.022869	0	4	0.0127235	0	4	0.0254469	0	4	0.0381704	0	
5	-0.0396197	0	5	0.00705233	0	5	0.01944	0	5	0.0114511	0	5	0.0229022	0	5	0.0343533	0	
6	-0.0358132	0	6	0.00784902	0	6	0.0165466	0	6	0.010306	0	6	0.020612	0	6	0.030918	0	
7	-0.0322981	0	7	0.00827511	0	7	0.0141066	0	7	0.0092754	0	7	0.0185508	0	7	0.0278262	0	
8	-0.0290782	0	8	0.00842289	0	8	0.0120491	0	8	0.00834786	0	8	0.0166957	0	8	0.0250436	0	
9	-0.0261466	0	9	0.00836547	0	9	0.010313	0	9	0.00751307	0	9	0.0150261	0	9	0.0225392	0	
10	-0.0234895	0	10	0.00816028	0	10	0.00884664	0	10	0.00676176	0	10	0.0135235	0	10	0.0202853	0	
11	-0.0210892	0	11	0.00785203	0	11	0.00760636	0	11	0.00608559	0	11	0.0121712	0	11	0.0182568	0	
12	-0.0189265	0	12	0.00747519	0	12	0.00655554	0	12	0.00547703	0	12	0.0109541	0	12	0.0164311	0	
13	-0.0169813	0	13	0.00705613	0	13	0.0056635	0	13	0.00492933	0	13	0.00985865	0	13	0.014788	0	
14	-0.0152341	0	14	0.00661475	0	14	0.00490465	0	14	0.00443639	0	14	0.00887279	0	14	0.0133092	0	
15	-0.0136663	0	15	0.00616592	0	15	0.00425761	0	15	0.00399275	0	15	0.00798551	0	15	0.0119783	0	
16	-0.0122602	0	16	0.00572049	0	16	0.0037046	0	16	0.00359348	0	16	0.00718696	0	16	0.0107804	0	
17	-0.0109998	0	17	0.00528628	0	17	0.00323077	0	17	0.00323413	0	17	0.00646826	0	17	0.00970239	0	
18	-0.00987009	0	18	0.00486868	0	18	0.00282378	0	18	0.00291072	0	18	0.00582143	0	18	0.00873215	0	
19	-0.00885771	0	19	0.00447128	0	19	0.00247329	0	19	0.00261965	0	19	0.00523929	0	19	0.00785894	0	
20	-0.00795043	0	20	0.00409628	0	20	0.00217071	0	20	0.00235768	0	20	0.00471536	0	20	0.00707304	0	
21	-0.00713727	0	21	0.00374482	0	21	0.00190882	0	21	0.00212191	0	21	0.00424383	0	21	0.00636574	0	
22	-0.00640836	0	22	0.00341726	0	22	0.0016816	0	22	0.00190972	0	22	0.00381944	0	22	0.00572916	0	
23	-0.00575486	0	23	0.0031134	0	23	0.00148397	0	23	0.00171875	0	23	0.0034375	0	23	0.00515625	0	
24	-0.00516885	0	24	0.00283262	0	24	0.00131169	0	24	0.00154687	0	24	0.00309375	0	24	0.00464062	0	
25	-0.00464324	0	25	0.00257404	0	25	0.00116116	0	25	0.00139219	0	25	0.00278437	0	25	0.00417656	0	
26	-0.00417171	0	26	0.00233657	0	26	0.00102935	0	26	0.00125297	0	26	0.00250594	0	26	0.00375891	0	
27	-0.0037486	0	27	0.00211901	0	27	0.000913704	0	27	0.00112767	0	27	0.00225534	0	27	0.00338301	0	
28	-0.00336885	0	28	0.00192013	0	28	0.00081203	0	28	0.0010149	0	28	0.00202981	0	28	0.00304471	0	
29	-0.00302796	0	29	0.00173863	0	29	0.000722478	0	29	0.000913414	0	29	0.00182683	0	29	0.00274024	0	
30	-0.00272187	0	30	0.00157327	0	30	0.000643466	0	30	0.000822073	0	30	0.00164415	0	30	0.00246622	0	
31	-0.00244699	0	31	0.00142282	0	31	0.000573638	0	31	0.000739865	0	31	0.00147973	0	31	0.0022196	0	
32	-0.00220009	0	32	0.00128609	0	32	0.000511834	0	32	0.000665879	0	32	0.00133176	0	32	0.00199764	0	
33	-0.00197828	0	33	0.00116198	0	33	0.000457054	0	33	0.000599291	0	33	0.00119858	0	33	0.00179787	0	
34	-0.00177898	0	34	0.00104942	0	34	0.000408434	0	34	0.000539362	0	34	0.00107872	0	34	0.00161809	0	
35	-0.00159988	0	35	0.000947419	0	35	0.00036523	0	35	0.000485426	0	35	0.000970851	0	35	0.00145628	0	
36	-0.00143892	0	36	0.000855057	0	36	0.000326794	0	36	0.000436883	0	36	0.000873766	0	36	0.00131065	0	
37	-0.00129423	0	37	0.000771478	0	37	0.000292565	0	37	0.000393195	0	37	0.000786389	0	37	0.00117958	0	
38	-0.00116416	0	38	0.000695889	0	38	0.000262054	0	38	0.000353875	0	38	0.000707751	0	38	0.00106163	0	
39	-0.00104722	0	39	0.000627562	0	39	0.000234831	0	39	0.000318488	0	39	0.000636975	0	39	0.000955463	0	
40	-0.000942068	0	40	0.000565827	0	40	0.000210525	0	40	0.000286639	0	40	0.000573278	0	40	0.000859917	0	
41	-0.000847513	0	41	0.000510071	0	41	0.000188805	0	41	0.000257975	0	41	0.00051595	0	41	0.000773925	0	
42	-0.000762479	0	42	0.000459733	0	42	0.000169384	0	42	0.000232178	0	42	0.000464355	0	42	0.000696533	0	
43	-0.000686001	0	43	0.000414302	0	43	0.000152008	0	43	0.00020896	0	43	0.00041792	0	43	0.000626879	0	
44	-0.000617215	0	44	0.00037331	0	44	0.000136453	0	44	0.000188064	0	44	0.000376128	0	44	0.000564191	0	
45	-0.000555342	0	45	0.000336334	0	45	0.00012252	0	45	0.000169257	0	45	0.000338515	0	45	0.000507772	0	
46	-0.000499685	0	46	0.000302988	0	46	0.000110035	0	46	0.000152332	0	46	0.000304663	0	46	0.000456995	0	
47	-0.000449616	0	47	0.000272922	0	47	9.88434e-05	0	47	0.000137099	0	47	0.000274197	0	47	0.000411296	0	
48	-0.000404574	0	48	0.000245819	0	48	8.88064e-05	0	48	0.000123389	0	48	0.000246777	0	48	0.000370166	0	
49	-0.000364051	0	49	0.000221389	0	49	7.98021e-05	0	49	0.00011105	0	49	0.0002221	0	49	0.000333149	0	
50	-0.000327592	0	50	0.000199374	0	50	7.17217e-05	0	50	9.99448e-05	0	50	0.00019989	0	50	0.000299834	0	
51	-0.00029479	0	51	0.000179537	0	51	6.44684e-05	0	51	8.99503e-05	0	51	0.000179901	0	51	0.000269851	0	
52	-0.000265276	0	52	0.000161664	0	52	5.79558e-05	0	52	8.09553e-05	0	52	0.000161911	0	52	0.000242866	0	
53	-0.00023872	0	53	0.000145563	0	53	5.2107e-05	0	53	7.28598e-05	0	53	0.00014572	0	53	0.000218579	0	
54	-0.000214825	0	54	0.00013106	0	54	4.68532e-05	0	54	6.55738e-05	0	54	0.000131148	0	54	0.000196721	0	
55	-0.000193324	0	55	0.000117997	0	55	4.21329e-05	0	55	5.90164e-05	0	55	0.000118033	0	55	0.000177049	0	
56	-0.000173976	0	56	0.000106232	0	56	3.78913e-05	0	56	5.31148e-05	0	56	0.00010623	0	56	0.000159344	0	
57	-0.000156566	0	57	9.56374e-05	0	57	3.40793e-05	0	57	4.78033e-05	0	57	9.56066e-05	0	57	0.00014341	0	
58	-0.0001409	0	58	8.60966e-05	0	58	3.06528e-05	0	58	4.3023e-05	0	58	8.60459e-05	0	58	0.000129069	0	
59	-0.000126802	0	59	7.75054e-05	0	59	2.75725e-05	0	59	3.87207e-05	0	59	7.74413e-05	0	59	0.000116162	0	
60	-0.000114115	0	60	6.97699e-05	0	60	2.48031e-05	0	60	3.48486e-05	0	60	6.96972e-05	0	60	0.000104546	0	
61	-0.000102698	0	61	6.28051e-05	0	61	2.23129e-05	0	61	3.13637e-05	0	61	6.27275e-05	0	61	9.40912e-05	0	
62	-9.24242e-05	0	62	5.65344e-05	0	62	2.00736e-05	0	62	2.82274e-05	0	62	5.64547e-05	0	62	8.46821e-05	0	
63	-8.31783e-05	0	63	5.08889e-05	0	63	1.80598e-05	0	63	2.54046e-05	0	63	5.08093e-05	0	63	7.62139e-05	0	
64	-7.48576e-05	0	64	4.58065e-05	0	64	1.62485e-05	0	64	2.28642e-05	0	64	4.57283e-05	0	64	6.85925e-05	0	
65	-6.73696e-05	0	65	4.12311e-05	0	65	1.46194e-05	0	65	2.05778e-05	0	65	4.11555e-05	0	65	6.17333e-05	0	
66	-6.06308e-05	0	66	3.71122e-05	0	66	1.31541e-05	0	66	1.852e-05	0	66	3.704e-05	0	66	5.55599e-05	0	
67	-5.45662e-05	0	67	3.34044e-05	0	67	1.18359e-05	0	67	1.6668e-05	0	67	3.3336e-05	0	67	5.00039e-05	0	
